370 0.00124001806762315
371.706827309237 -0.000421118508265758
373.413654618474 -0.000320365670640222
375.120481927711 0.000806437205853225
376.827309236948 0.000549660093190914
378.534136546185 0.00108406731873026
380.240963855421 0.000266133221887282
381.947791164658 0.0032478541463871
383.654618473895 0.00334775849059128
385.361445783132 0.00555931939183668
387.06827309237 0.00527348374396791
388.775100401607 0.00544119389711169
390.481927710844 0.00317150533615035
392.188755020081 0.00452777208064309
393.895582329317 0.0021484279041445
395.602409638554 0.00302045676832959
397.309236947791 0.00210668598925587
399.016064257028 0.00579732049184216
400.722891566265 0.00686070201434308
402.429718875502 0.00427886759348863
404.136546184739 0.00193781326399856
405.843373493976 -0.00130086216164526
407.550200803213 -0.000889022657134935
409.25702811245 -1.8211242332655E-05
410.963855421686 0.00412502020492926
412.670682730923 0.000863367131850154
414.37751004016 0.00272533877804914
416.084337349398 0.00247433206485668
417.791164658635 0.00277672655947283
419.497991967872 0.000650929364300746
421.204819277109 -0.00609480895252022
422.911646586346 -0.00208901324921927
424.618473895582 -0.0048405874759079
426.325301204819 0.00120796847938077
428.032128514056 -0.00147138469818859
429.738955823293 0.00318549922112242
431.44578313253 0.00223920746507278
433.152610441767 0.00315154450484462
434.859437751004 0.00174154423205907
436.566265060241 0.000893334973855057
438.273092369478 0.00289693424479665
439.979919678715 0.00359146914040448
441.686746987951 0.00530172626994799
443.393574297188 0.00606867012841428
445.100401606426 0.00601329596385116
446.807228915663 0.00341652908347687
448.5140562249 0.000971640429959983
450.220883534137 0.00281715275232479
451.927710843374 0.00378351862081699
453.634538152611 0.00886203355955415
455.341365461848 0.00885373655960893
457.048192771084 0.0137880974418263
458.755020080321 0.0144605379130815
460.461847389558 0.0192688673279371
462.168674698795 0.0228604365868215
463.875502008032 0.0251093809590759
465.582329317269 0.0256779062138396
467.289156626506 0.028229582836909
468.995983935743 0.0358029775246666
470.70281124498 0.04343541622494
472.409638554217 0.0506606811994785
474.116465863453 0.0527884706419467
475.82329317269 0.0591176443732338
477.530120481928 0.0680029134506576
479.236947791165 0.0764797956433456
480.943775100402 0.0867149439710642
482.650602409639 0.0978252746227723
484.357429718876 0.115437194846739
486.064257028113 0.133960348140522
487.77108433735 0.147699404233634
489.477911646586 0.166140070174147
491.184738955823 0.179998672032004
492.89156626506 0.200301827578336
494.598393574297 0.222800555463237
496.305220883534 0.243468050072693
498.012048192771 0.267781653117552
499.718875502008 0.290370058238912
501.425702811245 0.316942070860994
503.132530120482 0.343068319322932
504.839357429719 0.367228744355229
506.546184738956 0.395389471339353
508.253012048193 0.419367678588528
509.95983935743 0.44764900439904
511.666666666667 0.467028990259405
513.373493975904 0.489341516666143
515.080321285141 0.508264365433031
516.787148594378 0.52987046889733
518.493975903614 0.545346248671989
520.200803212851 0.557935965360792
521.907630522088 0.566115172483954
523.614457831325 0.573473949196921
525.321285140562 0.575069288702264
527.028112449799 0.573828377346284
528.734939759036 0.569111384415442
530.441767068273 0.555309792229822
532.14859437751 0.541431324878994
533.855421686747 0.523332488387845
535.562248995984 0.507473785042922
537.269076305221 0.489933997034523
538.975903614458 0.469928894061006
540.682730923695 0.451326978685589
542.389558232932 0.429714838958781
544.096385542169 0.413171796601992
545.803212851406 0.396333661629332
547.510040160643 0.383150032987568
549.21686746988 0.372539330805668
550.923694779117 0.364517973933109
552.630522088353 0.3645875623123
554.33734939759 0.365416413714841
556.044176706827 0.370305402008808
557.751004016064 0.374349250554734
559.457831325301 0.378896413364174
561.164658634538 0.382621581852392
562.871485943775 0.385017268412702
564.578313253012 0.391093676445695
566.285140562249 0.398196209132754
567.991967871485 0.40475575918924
569.698795180723 0.408485744016173
571.40562248996 0.411661685806215
573.112449799197 0.415474602686877
574.819277108434 0.417928286036423
576.526104417671 0.421199364496299
578.232931726908 0.418361675600859
579.939759036145 0.416490346119764
581.646586345381 0.406470113547348
583.353413654618 0.401590947750344
585.060240963855 0.392857966212955
586.767068273092 0.389895490685701
588.473895582329 0.380403779628989
590.180722891566 0.372292835185916
591.887550200803 0.359649793254806
593.59437751004 0.347056145670362
595.301204819277 0.335224797505487
597.008032128514 0.328035939855703
598.714859437751 0.322413580310106
600.421686746988 0.31171649626445
602.128514056225 0.296967144475684
603.835341365462 0.282230464082069
605.542168674699 0.274499456616568
607.248995983936 0.270319743877791
608.955823293173 0.263229533604507
610.66265060241 0.251240039317079
612.369477911647 0.239778263129229
614.076305220883 0.235812846857445
615.78313253012 0.235597363875422
617.489959839357 0.231452587479617
619.196787148594 0.222157493384352
620.903614457831 0.215440855499566
622.610441767068 0.211190716270639
624.317269076305 0.209182318668925
626.024096385543 0.205474734074904
627.73092369478 0.199706358794826
629.437751004016 0.195856101172244
631.144578313253 0.188298480147323
632.85140562249 0.188147045497463
634.558232931727 0.187131793886601
636.265060240964 0.18830880352323
637.971887550201 0.18075725122866
639.678714859438 0.170949546763883
641.385542168675 0.161962232865762
643.092369477912 0.15751850855711
644.799196787149 0.15609881983104
646.506024096385 0.149197645544382
648.212851405622 0.143038480622156
649.919678714859 0.133032548217719
651.626506024096 0.128044551729392
653.333333333333 0.125501711085877
655.04016064257 0.125284088200025
656.746987951807 0.121250038906117
658.453815261044 0.115427230809709
660.160642570281 0.110903115836856
661.867469879518 0.107555976563832
663.574297188755 0.0999591145291972
665.281124497992 0.092050318112516
666.987951807229 0.0877445832040052
668.694779116466 0.0872739428584895
670.401606425703 0.0826860376719691
672.10843373494 0.0803045678983646
673.815261044177 0.0721888609346495
675.522088353414 0.0678997303809113
677.22891566265 0.063254326974574
678.935742971887 0.0588540818893468
680.642570281124 0.0563245222684681
682.349397590361 0.0497604051094118
684.056224899598 0.0468855743962521
685.763052208835 0.0466451199760764
687.469879518072 0.0469110196560438
689.17670682731 0.0434208334132255
690.883534136547 0.0395947965950782
692.590361445783 0.0303884463954278
694.29718875502 0.0318044067579694
696.004016064257 0.0269056038123453
697.710843373494 0.030305594167022
699.417670682731 0.0253969471893854
701.124497991968 0.0237957768202544
702.831325301205 0.0195586526205876
704.538152610442 0.0161891022289803
706.244979919679 0.0156803940011069
707.951807228916 0.0153804557452692
709.658634538152 0.0197780593755607
711.365461847389 0.0160531664319977
713.072289156626 0.0139458653785804
714.779116465863 0.00953564638018554
716.4859437751 0.0097313742408401
718.192771084338 0.010217648971377
719.899598393575 0.00570776949105808
721.606425702812 0.00343103110822039
723.313253012049 0.00361930106225245
725.020080321285 0.00580451643883405
726.726907630522 0.00573167159605526
728.433734939759 0.0029575945331693
730.140562248996 0.0016264375484671
731.847389558233 0.00198359766630853
733.55421686747 -0.000283288508961164
735.261044176707 0.000966235509881654
736.967871485944 -0.00486671458518515
738.674698795181 -0.00644595185120004
740.381526104418 -0.00836618997823011
742.088353413654 -0.00215265240599447
743.795180722891 0.000672326515724559
745.502008032128 -0.00156103024012443
747.208835341365 -0.000690622062792088
748.915662650603 0.00096118383550157
750.62248995984 0.00437720509876622
752.329317269077 -0.000235566738405529
754.036144578313 0.00292596573125451
755.74297188755 0.00158887666616702
757.449799196787 0.00710675296974422
759.156626506024 0.00073940636365951
760.863453815261 0.00463619508999775
762.570281124498 0.00238500213564434
764.277108433735 0.00259621390237618
765.983935742972 0.00171457736402265
767.690763052209 0.000680372405643296
769.397590361446 -0.000468952175371663
771.104417670683 -0.00311724401394489
772.811244979919 -0.00365974394730338
774.518072289156 0.00205316311262165
776.224899598393 -0.000581954204552609
777.93172690763 9.47477241636422E-05
779.638554216867 0.00017972918572911
781.345381526105 0.00427944551289666
783.052208835342 0.000701031145247237
784.759036144579 0.00181021408848233
786.465863453815 0.00293071168749467
788.172690763052 0.00648294372194021
789.879518072289 0.00413385856930894
791.586345381526 0.00414272919882545
793.293172690763 0.00280885707464502
795 -0.00544700811197511
