370 -0.00503422577638208
371.706827309237 -0.00236274901063695
373.413654618474 -0.00210959920189848
375.120481927711 -0.00669879838811744
376.827309236948 -0.00612316273070189
378.534136546185 -0.00290547594785114
380.240963855421 -0.00137014558711435
381.947791164658 -0.00125052009803784
383.654618473895 -0.00252629035290213
385.361445783132 -0.000193813353352444
387.06827309237 0.00370837288631633
388.775100401607 0.0002553885831757
390.481927710844 -9.89927250529431E-05
392.188755020081 0.00119125169810602
393.895582329317 0.00263002195452754
395.602409638554 -0.00101719241199517
397.309236947791 -0.00372219316565117
399.016064257028 -0.00407322623176766
400.722891566265 -0.00124678309298406
402.429718875502 0.00232941842861164
404.136546184739 0.004408754313327
405.843373493976 0.00232816059900216
407.550200803213 -0.00102223352654127
409.25702811245 0.00113490925504094
410.963855421686 0.00312098121449118
412.670682730923 0.0022956288437278
414.37751004016 0.000187111442565393
416.084337349398 0.00291863627832709
417.791164658635 0.00067080655640175
419.497991967872 -0.00219422519344252
421.204819277109 -0.00558338908959015
422.911646586346 -0.00497567980598566
424.618473895582 -0.000551386220241236
426.325301204819 8.58222057338287E-05
428.032128514056 -0.000355446244963826
429.738955823293 -0.00305454704884748
431.44578313253 -0.00288955555295365
433.152610441767 -0.00322304620982662
434.859437751004 -0.00365125898483298
436.566265060241 -0.000466010901932008
438.273092369478 0.000666563445627168
439.979919678715 0.00126486290692273
441.686746987951 0.0015704631978987
443.393574297188 0.00336847523680987
445.100401606426 0.005069390958891
446.807228915663 0.00198963107170118
448.5140562249 0.00187437821468168
450.220883534137 0.00051599705185928
451.927710843374 0.00341332039044597
453.634538152611 0.00593301319739316
455.341365461848 0.00475633685857156
457.048192771084 0.000228738695798103
458.755020080321 0.000622253097218233
460.461847389558 0.0045819155782814
462.168674698795 0.006046134507423
463.875502008032 0.0021674781155902
465.582329317269 0.00348342056417105
467.289156626506 0.00539690228256271
468.995983935743 0.0094751241682541
470.70281124498 0.00635667742686106
472.409638554217 0.009081083430311
474.116465863453 0.0055672387446305
475.82329317269 0.00527093259294479
477.530120481928 0.00288039375958427
479.236947791165 0.0067167371843395
480.943775100402 0.00393250116954331
482.650602409639 0.00349427583116937
484.357429718876 0.00588183072709442
486.064257028113 0.0108660071036694
487.77108433735 0.0111071050308628
489.477911646586 0.0116678611127952
491.184738955823 0.0128166882523608
492.89156626506 0.016359863200552
494.598393574297 0.0153270506092147
496.305220883534 0.016993749762887
498.012048192771 0.0228117329822272
499.718875502008 0.0286504263428888
501.425702811245 0.0381087388571433
503.132530120482 0.0398557722414928
504.839357429719 0.0431441074389021
506.546184738956 0.0444681294429772
508.253012048193 0.0543346879063916
509.95983935743 0.0586184934913873
511.666666666667 0.0677977475088055
513.373493975904 0.073340297756253
515.080321285141 0.0876260450462818
516.787148594378 0.101881412850208
518.493975903614 0.114950993593279
520.200803212851 0.132275992818022
521.907630522088 0.149453070967474
523.614457831325 0.168838820266715
525.321285140562 0.187337052739262
527.028112449799 0.206385562308729
528.734939759036 0.225855842261853
530.441767068273 0.244261840732963
532.14859437751 0.26369040822184
533.855421686747 0.292162883684581
535.562248995984 0.319376666957236
537.269076305221 0.348656564164967
538.975903614458 0.374293328643136
540.682730923695 0.403115731167778
542.389558232932 0.426402227234975
544.096385542169 0.4512973161041
545.803212851406 0.478065375998302
547.510040160643 0.502988104210682
549.21686746988 0.520505127004103
550.923694779117 0.53194895752255
552.630522088353 0.547819782969748
554.33734939759 0.56155766466628
556.044176706827 0.573212429222084
557.751004016064 0.573200927024658
559.457831325301 0.572647214487146
561.164658634538 0.566647460375618
562.871485943775 0.559812038425686
564.578313253012 0.544447738731441
566.285140562249 0.526817750014759
567.991967871485 0.50109030549926
569.698795180723 0.475248316123431
571.40562248996 0.446780912394329
573.112449799197 0.424493278075662
574.819277108434 0.398089665242085
576.526104417671 0.367976758173594
578.232931726908 0.338854131113755
579.939759036145 0.313292886623162
581.646586345381 0.30002644184801
583.353413654618 0.285332124220913
585.060240963855 0.273816949846408
586.767068273092 0.26936265994066
588.473895582329 0.269067509373208
590.180722891566 0.283931933664623
591.887550200803 0.292782432293387
593.59437751004 0.306101665356745
595.301204819277 0.321061302559222
597.008032128514 0.339805707740144
598.714859437751 0.363085497384241
600.421686746988 0.376155669057027
602.128514056225 0.389963451776013
603.835341365462 0.396876991805026
605.542168674699 0.406851462458169
607.248995983936 0.40958304945325
608.955823293173 0.413411020434542
610.66265060241 0.411634318607544
612.369477911647 0.410332302373913
614.076305220883 0.409190067370592
615.78313253012 0.404797685424703
617.489959839357 0.395943241010988
619.196787148594 0.388471360052133
620.903614457831 0.38159516691599
622.610441767068 0.371067710261107
624.317269076305 0.357588879166442
626.024096385543 0.342804075616832
627.73092369478 0.333048512279064
629.437751004016 0.321993708699162
631.144578313253 0.313339583128957
632.85140562249 0.305777390048423
634.558232931727 0.295546862330737
636.265060240964 0.28934655840404
637.971887550201 0.282364205274366
639.678714859438 0.277805572192495
641.385542168675 0.270414640197246
643.092369477912 0.260175911885087
644.799196787149 0.256129493443004
646.506024096385 0.249387769214457
648.212851405622 0.243064924995862
649.919678714859 0.234040474968862
651.626506024096 0.226796819305446
653.333333333333 0.221838410883941
655.04016064257 0.214665590759756
656.746987951807 0.213309540547881
658.453815261044 0.212561003470001
660.160642570281 0.204736082909663
661.867469879518 0.196128331979998
663.574297188755 0.188673430580668
665.281124497992 0.186790487137879
666.987951807229 0.179222177159589
668.694779116466 0.176383940855543
670.401606425703 0.174236354165591
672.10843373494 0.172470608099418
673.815261044177 0.172411503571223
675.522088353414 0.168215210639916
677.22891566265 0.164465683737514
678.935742971887 0.152662293048151
680.642570281124 0.151446325813709
682.349397590361 0.149016230624986
684.056224899598 0.143908374908442
685.763052208835 0.135994975794401
687.469879518072 0.129562087863782
689.17670682731 0.125059884928171
690.883534136547 0.122030993904431
692.590361445783 0.114548558651097
694.29718875502 0.108584495096934
696.004016064257 0.101897002413867
697.710843373494 0.100655275900621
699.417670682731 0.0977703821685362
701.124497991968 0.0958661167581356
702.831325301205 0.0904757046089927
704.538152610442 0.0856384551881595
706.244979919679 0.0761303219758229
707.951807228916 0.0696281104844926
709.658634538152 0.064210958323393
711.365461847389 0.0599315550499513
713.072289156626 0.0509376603838345
714.779116465863 0.0503298447570652
716.4859437751 0.0487514131134298
718.192771084338 0.0518113239441268
719.899598393575 0.0483082485920239
721.606425702812 0.0443437890992002
723.313253012049 0.0417522720746557
725.020080321285 0.03781687693776
726.726907630522 0.036427081761113
728.433734939759 0.0303578810236182
730.140562248996 0.0287896919686881
731.847389558233 0.024398696187434
733.55421686747 0.0239555756851003
735.261044176707 0.0151057327234851
736.967871485944 0.0107489054976206
738.674698795181 0.00715035128071082
740.381526104418 0.0114474794370871
742.088353413654 0.0115101341555406
743.795180722891 0.0110128179078404
745.502008032128 0.0047769119217935
747.208835341365 0.00679917924650763
748.915662650603 0.00541665870024282
750.62248995984 0.00823865199980571
752.329317269077 0.0010056450128562
754.036144578313 -0.00058557974241269
755.74297188755 -0.00178148105440463
757.449799196787 0.00078887244256666
759.156626506024 -1.5249794983281E-05
760.863453815261 -0.0016376663704313
762.570281124498 -0.00155670105999538
764.277108433735 0.00225770199268841
765.983935742972 0.00124284980200883
767.690763052209 0.00182956273422322
769.397590361446 -0.000756043362264344
771.104417670683 0.00471335644149091
772.811244979919 0.00541505705099527
774.518072289156 0.00658832390621187
776.224899598393 0.00450455955993957
777.93172690763 0.00314705549888101
779.638554216867 0.00261600619589379
781.345381526105 0.000309866548341681
783.052208835342 0.00240381870749574
784.759036144579 0.00352001559806496
786.465863453815 0.00280802037440436
788.172690763052 0.00189658996901882
789.879518072289 0.00299129569935824
791.586345381526 0.00837990994347374
793.293172690763 0.00803190919414436
795 0.00230364974237175
